# 5 : 4 4 4 4 4 
# Tr_f(plaq)/2    Tr_a(plaq)/3     energy       W(1,2)        W(2,2)        W(2,3)        W(3,3)        W(2,4)        W(4,4)        Re(polyakov)   Im(polyakov) 
0.897210600572 0.754094677753 0.164463039085 0.844040379629 0.79815098567 0.754543300624 0.714140550837 0.788004729444 0.947877162772 0.898927465796 0 
0.823986762717 0.60031019526 0.281621179652 0.736308788363 0.653615304423 0.593471275717 0.541751540817 0.634203371257 0.852486457168 0.816061204154 0 
0.771434382179 0.503569489319 0.365704988514 0.655793028138 0.553233543376 0.482649421342 0.429455613506 0.523577516495 0.767711199588 0.75416991952 0 
0.731601385283 0.437834858146 0.429437783547 0.598245425227 0.482131419837 0.405360157272 0.350761075672 0.45242169839 0.692164765348 0.69134086682 0 
0.707333361854 0.400523568493 0.468266621034 0.564328120341 0.435004149248 0.356891959846 0.311009052973 0.393082894603 0.63123179442 0.661142393984 0 
0.685004297375 0.368516741856 0.5039931242 0.531203727459 0.394022444883 0.315667302246 0.263603368012 0.358935645859 0.581162217714 0.615563139388 0 
0.66582675971 0.342181569975 0.534677184463 0.507958763378 0.37063973187 0.287892267606 0.235141470604 0.331896511085 0.549278205225 0.596996753938 0 
0.650542530739 0.321949888519 0.559131950818 0.487711748 0.34342014789 0.2718825034 0.219789363007 0.320176800371 0.519548061233 0.549999226272 0 
0.638967441676 0.308850574978 0.577652093319 0.469837853909 0.320133488041 0.2450796067 0.199359164963 0.289049323282 0.491569841765 0.542368324765 0 
0.624082581181 0.288719225163 0.601467870111 0.448423458952 0.296840801226 0.223211745083 0.172465383789 0.253774842501 0.466918217945 0.522800362673 0 
0.61584539202 0.282285403435 0.614647372768 0.439844726292 0.292134687332 0.22402085622 0.168397131417 0.264956560508 0.467227627896 0.507848209103 0 
0.608671013063 0.273573485297 0.626126379099 0.432299901128 0.280228827578 0.206287850389 0.157298521328 0.244311115793 0.451034840832 0.495167423292 0 
0.599134270098 0.264231557896 0.641385167844 0.415704580829 0.262299430368 0.183373070821 0.13533781174 0.215218873624 0.415651647685 0.462170164227 0 
0.59366640443 0.257171775421 0.650133752912 0.404181421424 0.252417906696 0.174022733671 0.136496056995 0.185706543939 0.40255261175 0.448435577118 0 
0.586089213735 0.249443049899 0.662257258024 0.391182349807 0.234434442722 0.159564402735 0.128504119344 0.172420160385 0.395703389984 0.441651610858 0 
0.581513248237 0.248003771538 0.669578802821 0.381488312756 0.221754854933 0.151182439669 0.117239022583 0.162336613318 0.383043113342 0.410182894899 0 
0.575679564334 0.243493014472 0.678912697066 0.372295637661 0.222569881091 0.144589101293 0.108804193413 0.161288688316 0.397864547305 0.419258185461 0 
0.575332942462 0.243604040309 0.67946729206 0.370249836967 0.216179102606 0.141241141319 0.0990202508339 0.147943583444 0.35641826537 0.392021683891 0 
0.571817488433 0.236821391426 0.685092018507 0.373393901177 0.214245240021 0.136152232128 0.0950710090466 0.151322010761 0.360136850783 0.37026290544 0 
0.566160751554 0.228868079242 0.694142797514 0.36513677628 0.214131720332 0.133475441624 0.0896772539922 0.150763308522 0.360013888505 0.353543759369 0 
0.564348924787 0.229990678343 0.69704172034 0.36449126345 0.207439748048 0.132161099999 0.0835157095818 0.145090399095 0.357902592045 0.337325782936 0 
0.566498793267 0.232627109274 0.693601930772 0.371445473475 0.212517054021 0.137375950238 0.0981118955069 0.155669144021 0.368902155331 0.372402771573 0 
0.560377759901 0.225846635226 0.703395584159 0.366479352166 0.203326935393 0.134332244771 0.106810305511 0.151147911234 0.347487487186 0.366080913929 0 
0.556859095176 0.221184430777 0.709025447718 0.356842824112 0.191413579413 0.129253053904 0.0974566932605 0.151241495044 0.350717862659 0.36963291189 0 
0.557772674388 0.224496556738 0.707563720979 0.357295772831 0.189387870145 0.129467512614 0.0902707202262 0.144932146694 0.342326579078 0.369706158325 0 
0.556449440686 0.222826175654 0.709680894903 0.35376580326 0.184877578784 0.118938991261 0.0898484076977 0.132719705011 0.343296261501 0.353620741524 0 
0.54941302939 0.217111808252 0.720939152976 0.346280577908 0.174565678356 0.111759820265 0.0770226367355 0.125822034051 0.336640341834 0.325589962219 0 
0.546084723925 0.212517006154 0.72626444172 0.342580747192 0.172606259332 0.1123631153 0.0757449084548 0.122770467043 0.338643644703 0.313854984994 0 
0.545165586248 0.215043270541 0.727735062004 0.340216399725 0.167809334475 0.112553183126 0.0752801398181 0.126313922358 0.375174962152 0.342773200926 0 
0.541086829622 0.21067878851 0.734261072605 0.332237974757 0.165063228444 0.107429904787 0.0690638750065 0.107394166396 0.349999429573 0.313344892241 0 
0.540742084673 0.209808042022 0.734812664523 0.32996763661 0.161823265148 0.0961873788504 0.0593206894093 0.102017352332 0.32682588107 0.302350997256 0 
0.537626180709 0.206808310339 0.739798110866 0.325582415087 0.162162598911 0.0987660727696 0.0642962025754 0.0997691288715 0.327258037554 0.311872538928 0 
0.534588072366 0.206061234117 0.744659084215 0.325496953931 0.16041759842 0.0944559529373 0.062494971819 0.0958008473384 0.334403427612 0.292510713359 0 
0.533026376077 0.199922093037 0.747157798277 0.324094162138 0.161043605366 0.101237255825 0.0656183447665 0.118522136148 0.337887472143 0.316808998381 0 
0.532793416054 0.201667508274 0.747530534314 0.331895417962 0.160066688931 0.104236149924 0.062785591376 0.134337705661 0.334362832838 0.255939496376 0 
0.52983017774 0.202540234974 0.752271715616 0.323797165409 0.158888878439 0.0909491571087 0.0603067596504 0.104013704169 0.323909332673 0.267543471957 0 
0.527952907795 0.200026781025 0.755275347527 0.322853688139 0.159533740904 0.094658805083 0.061215089955 0.097598365867 0.318678808136 0.299308259891 0 
0.529643528311 0.200659319184 0.752570354702 0.322973547447 0.163868092215 0.100627496753 0.0675705185898 0.0934168380949 0.319374857976 0.322613292936 0 
0.524951435366 0.196889874881 0.760077703414 0.316880523424 0.159590509705 0.0993400106847 0.071551067019 0.0898483766786 0.313407243166 0.32561563642 0 
0.531687715983 0.202302292411 0.749299654428 0.323798410339 0.158310955475 0.100970334037 0.0677176858538 0.100298767708 0.331647856049 0.302719168155 0 
0.530434366795 0.198843360031 0.751305013127 0.32837150077 0.163237491375 0.101042202964 0.0679614259945 0.106127340298 0.33843101912 0.305106117141 0 
0.528565751329 0.196016457028 0.754294797874 0.329125237732 0.170398882808 0.099484643841 0.0596569472389 0.101218539028 0.320363509196 0.31152067127 0 
0.531712019381 0.201614236648 0.749260768991 0.324529678493 0.160852665888 0.102254816143 0.0631252634493 0.107599341975 0.324843765355 0.332502996783 0 
0.530613733891 0.199540930696 0.751018025774 0.323065080693 0.15535797234 0.103316111514 0.0633231983766 0.107149595193 0.298565396251 0.294220582248 0 
0.532128590545 0.200821163321 0.748594255128 0.321523715001 0.156521881444 0.10327811751 0.070725160352 0.106149074237 0.279042402243 0.291554085674 0 
0.531764131876 0.201635936052 0.749177388998 0.317345238611 0.14783185187 0.0980209741034 0.062037485599 0.11140968619 0.303910364507 0.293036175773 0 
0.531832069305 0.201659438039 0.749068689112 0.315957472914 0.157495828577 0.0953121744204 0.0551458857596 0.103548196473 0.289041559419 0.29507834516 0 
0.527416390318 0.198938651815 0.756133775491 0.314558608207 0.149368275592 0.0852825919224 0.0517848520279 0.0901963621306 0.29583002421 0.279935785509 0 
0.526168299255 0.196190707338 0.758130721192 0.31130472048 0.158725212449 0.0887976081605 0.0589431814301 0.0928222923972 0.290574650012 0.314721607312 0 
0.527837345999 0.196915023819 0.755460246401 0.312018514861 0.148390147873 0.0879906572291 0.0593703711288 0.0942226495321 0.290024692612 0.298362180396 0 
0.523737703397 0.191753944563 0.762019674565 0.310269734954 0.15175846811 0.0850712871948 0.0623501449237 0.0936239168815 0.299873018062 0.305401933358 0 
0.524683486643 0.193565768711 0.760506421372 0.318095571263 0.152591019862 0.0872878135047 0.0537531558033 0.0882832217862 0.287732386717 0.296146000892 0 
0.523987357773 0.194089023569 0.761620227564 0.313985165929 0.14900890481 0.0864436302692 0.0548041587732 0.0934406990454 0.322345570073 0.282863698094 0 
0.528042777536 0.195389154378 0.755131555942 0.312891767227 0.152023770945 0.0865528200187 0.0610856921884 0.0911217235736 0.321106363013 0.282482242009 0 
0.521414781861 0.1922749624 0.765736349022 0.304453617155 0.144722701843 0.0806377336832 0.0523224070309 0.0713295341256 0.298075911441 0.281043780934 0 
0.52446410901 0.196068524449 0.760857425585 0.310019173202 0.144940386854 0.077858652872 0.0475016787152 0.0791493672226 0.317511846134 0.287435332602 0 
0.525179811852 0.196715351307 0.759712301037 0.313648294078 0.146471920059 0.0841117455426 0.0541886026602 0.0782581069841 0.310071411863 0.284613067217 0 
0.524371708854 0.19904337266 0.761005265834 0.309065267201 0.14110383513 0.0803213734526 0.0541850120167 0.0772389445487 0.302168968197 0.287462311735 0 
0.526673675026 0.199389687957 0.757322119958 0.309372433699 0.141389931334 0.0821988039627 0.0614338860595 0.0829687891041 0.304359234117 0.296038699793 0 
0.525488761561 0.200818320002 0.759217981503 0.308005215371 0.135571866215 0.0748172070691 0.0605894728741 0.0748309675911 0.298364426451 0.271518689432 0 
0.530487267437 0.202879887251 0.7512203721 0.311275708497 0.142853157295 0.0818827450733 0.0585863214916 0.0805920577295 0.302448692537 0.298319282478 0 
0.527908216579 0.197338619944 0.755346853473 0.311846607561 0.138545299503 0.0826577701087 0.0560899681923 0.0806440466101 0.311929683336 0.282963715657 0 
0.52519922714 0.197914416171 0.759681236576 0.304840862279 0.139247465027 0.0869079036009 0.0574595521004 0.0774817592837 0.300507946812 0.27538535394 0 
0.523407093089 0.195727105746 0.762548651058 0.303595674936 0.137249087517 0.0776151603269 0.0483703293292 0.0649779481749 0.282822402174 0.273556303713 0 
0.526249342381 0.196315983269 0.758001052191 0.308436847757 0.138207324618 0.0743859197923 0.0448970265261 0.0683258270657 0.291202136781 0.285953364195 0 
0.523787763973 0.194392287874 0.761939577643 0.304796405968 0.136170281571 0.0736680842751 0.0472278019781 0.063304665985 0.29300921654 0.259706626411 0 
0.521830351077 0.193644133229 0.765071438277 0.303036126943 0.137698467858 0.0703720625114 0.0623838487996 0.0633740412033 0.288511109122 0.280179856576 0 
0.520168320536 0.191115911026 0.767730687143 0.306709701115 0.137271448328 0.0766040315475 0.0616300708167 0.0705590315927 0.269266872468 0.269238748751 0 
0.517517999897 0.18846896333 0.771971200165 0.291909560694 0.129435769492 0.070800459772 0.0557642321331 0.0642678479391 0.260008162357 0.256238970242 0 
0.519294447546 0.193061585736 0.769128883926 0.290689874237 0.134393654329 0.0750468732077 0.0526282612577 0.0759013643899 0.265728623921 0.251379376959 0 
0.509748504678 0.183551303187 0.784402392515 0.28336533363 0.134140228673 0.0806979797946 0.0468088734993 0.0755561591244 0.250506645875 0.255616175401 0 
0.509140504394 0.183912320401 0.785375192969 0.286029662315 0.127940288153 0.0750427894202 0.043080666515 0.0702522507861 0.269096377443 0.225711976742 0 
0.510869203834 0.184733820803 0.782609273866 0.29090153387 0.131249020211 0.0780837278856 0.0381090103016 0.0772672074855 0.283502854979 0.237567295012 0 
0.51141796073 0.185301467523 0.781731262833 0.292815155819 0.128549778677 0.0693748694577 0.0369310207882 0.0652868920306 0.27830132475 0.238704480863 0 
0.510990534879 0.182288031433 0.782415144193 0.294042570296 0.132047024117 0.0694394041233 0.0480882328587 0.063731195791 0.292740020672 0.265799834105 0 
0.507259784653 0.182791949984 0.788384344555 0.287104543114 0.125691320725 0.0640029515731 0.0444654420402 0.0542151474128 0.279967431618 0.248588620066 0 
0.510671165288 0.183802412579 0.782926135539 0.285400784165 0.1246682334 0.0656968347038 0.0547295145988 0.0499279401014 0.268168992578 0.233074714014 0 
0.509993100484 0.185780901983 0.784011039226 0.293273790328 0.134618233269 0.0734208502414 0.0463986416498 0.0630913193043 0.271618124785 0.227844917241 0 
0.505172465293 0.181858973259 0.791724055531 0.292279991413 0.136898555198 0.0806042153346 0.042472935224 0.0749596461082 0.286240120709 0.222093535612 0 
0.511768502125 0.187651240404 0.781170396601 0.297942741151 0.132916684191 0.0698079099475 0.0413992675521 0.0701416227752 0.292072842276 0.241784671658 0 
0.513581126784 0.187629242401 0.778270197145 0.299015337528 0.139863899549 0.0814481734119 0.0502891364827 0.0714125438048 0.270182999357 0.244865208763 0 
0.513609378389 0.185942331031 0.778224994578 0.293396511076 0.129799813393 0.0685862590105 0.044746021441 0.0528441061042 0.258560800229 0.23363714375 0 
0.514257077272 0.188511900631 0.777188676365 0.292874042373 0.12891197372 0.0694168601775 0.044947136783 0.0600070316256 0.280938967275 0.249109036856 0 
0.517073984939 0.192118222797 0.772681624098 0.29692924731 0.132059361809 0.0773533351541 0.0527132721391 0.0692104036318 0.288252682463 0.249463641448 0 
0.516273967082 0.190096715707 0.773961652669 0.290796053703 0.127086546083 0.0716719378744 0.0407095528034 0.0603144367162 0.281418480535 0.228147725004 0 
0.513508190296 0.183006367795 0.778386895526 0.287696597966 0.127147511179 0.0683351456106 0.0364851969739 0.0523753581117 0.28161037577 0.209652009575 0 
0.514641540034 0.189809552549 0.776573535946 0.294333101688 0.129052287773 0.0693688287383 0.0427518659959 0.0583213503511 0.290229867001 0.232501779237 0 
0.51503014403 0.192801716868 0.775951769553 0.298919505901 0.12965848728 0.0713893047184 0.0486566479597 0.061166319765 0.315280571317 0.245192975367 0 
0.515961761279 0.191574160079 0.774461181953 0.301391958466 0.13199708337 0.0760434009731 0.0513392605167 0.0634823969345 0.318089985254 0.265473389739 0 
0.514927805397 0.188681847434 0.776115511364 0.306959889111 0.134789554442 0.0741569918207 0.0472616258815 0.0626544533816 0.298469911768 0.234926721973 0 
0.511709134158 0.184869059227 0.781265385347 0.300746620223 0.134072350353 0.0798984448659 0.0487640165581 0.0662781161696 0.286324482648 0.227319180318 0 
0.519059151265 0.189773569836 0.769505357976 0.304015794921 0.132784657764 0.0760100418119 0.0469723392077 0.0738832520165 0.278122758457 0.237863755929 0 
0.520612626451 0.194397843263 0.767019797678 0.309625201489 0.147811847348 0.080851921069 0.0536475661095 0.076213858332 0.293515984404 0.226954256574 0 
0.519596600396 0.190675508377 0.768645439366 0.305755676759 0.137696970132 0.0741858900996 0.0505727041101 0.0560601826639 0.297127800354 0.235935967618 0 
0.516681615307 0.192024543152 0.773309415509 0.301052978534 0.129787388661 0.068573894161 0.0448706554714 0.0524446332865 0.27211360533 0.206767508378 0 
0.511525585551 0.186057507204 0.781559063118 0.29476598095 0.130992108353 0.0657918268424 0.0499707347072 0.0532034959327 0.289436430762 0.224075895606 0 
0.513341231636 0.188302026372 0.778654029383 0.298866922895 0.130402677146 0.0668635627544 0.0462317648009 0.0459778616863 0.285652132345 0.246344448534 0 
0.514587291462 0.191367669435 0.77666033366 0.301430287822 0.12971902167 0.0643207976539 0.045597075736 0.0475828542531 0.290559219312 0.254618056259 0 
0.516238466948 0.192051168043 0.774018452884 0.297000438797 0.133872857988 0.075729345503 0.048093567987 0.0603535081448 0.28479854478 0.262434100403 0 
0.520970066808 0.194108202249 0.766447893108 0.303188052689 0.138395025128 0.0686870011414 0.0465176060304 0.055242138924 0.26720330283 0.262224719701 0 
0.520356398113 0.193125219494 0.767429763019 0.304023545869 0.145206015101 0.078796957878 0.0455397474843 0.0834939996039 0.296498246591 0.268729388564 0 
0.518371262903 0.190533844909 0.770605979355 0.305061695509 0.143248821773 0.0846368546433 0.0474224823156 0.0753132508065 0.290318734001 0.257423810676 0 
0.521101011732 0.193446662079 0.766238381229 0.307986469939 0.145104492401 0.0796213817261 0.0427623819914 0.0794252661836 0.274906691141 0.230585364292 0 
0.519476822682 0.192925272502 0.768837083709 0.300833527175 0.147778486918 0.0829737674122 0.0469576443935 0.0713076711441 0.284076065684 0.269007416001 0 
0.518582417124 0.191972377233 0.770268132601 0.304034136315 0.151280439217 0.0881432320323 0.0575208664806 0.0782951978739 0.276339893973 0.292132020459 0 
0.519914154185 0.190570086973 0.768137353305 0.316914051996 0.160589607191 0.0852096127193 0.0598981536126 0.0747318990506 0.293115085952 0.273708102757 0 
0.520057088959 0.189385341606 0.767908657665 0.31231017782 0.148762611623 0.0904584327472 0.0595790838392 0.0836344851327 0.269109173177 0.248066616502 0 
0.518367469212 0.192559179979 0.770612049261 0.307249817229 0.14788465583 0.0880979670298 0.0564931181063 0.0775991683187 0.300510726749 0.242707816695 0 
0.516766143305 0.188757298043 0.773174170712 0.301598037355 0.137485103967 0.0737259926901 0.0542548100313 0.0650926307792 0.31337138045 0.252389318798 0 
0.519642082112 0.191428143483 0.768572668621 0.303246992131 0.140568956179 0.0803796030913 0.0559719267887 0.0786371394805 0.297371505196 0.243954817427 0 
0.519016363118 0.19127441415 0.76957381901 0.300315371706 0.142348592139 0.0855226811283 0.0591516414758 0.0877068108882 0.295632137883 0.278501032362 0 
0.516927206401 0.190885179235 0.772916469759 0.297663588165 0.133887078598 0.0853655875353 0.0523951371448 0.0834404144376 0.283368286998 0.260818539337 0 
0.518050835803 0.190246284494 0.771118662716 0.309050430845 0.140555264706 0.0806659382248 0.0482636728969 0.0795962739186 0.293949511904 0.239457814802 0 
0.513964137054 0.185176848936 0.777657380713 0.301718999342 0.138408465069 0.0817593572031 0.0430306763045 0.0833023993578 0.294677919114 0.229969072623 0 
0.516150503231 0.186620335606 0.77415919483 0.301703649291 0.134457963836 0.0773971662512 0.0473374809827 0.0821317881903 0.275369350477 0.225184040266 0 
0.51686114345 0.189906266746 0.773022170479 0.300737566365 0.13153621516 0.0749840309025 0.0467775592423 0.0708521953313 0.282908915255 0.204354965429 0 
0.51548657174 0.18660547181 0.775221485216 0.29943430227 0.136262576182 0.0693060008599 0.0519787754789 0.079937631979 0.282829836182 0.19863121593 0 
0.515528728886 0.190050580992 0.775154033783 0.298538311296 0.133610724458 0.0646849652026 0.0471571747565 0.0585937447093 0.290841284665 0.189664486493 0 
0.513921255494 0.187515649663 0.777725991209 0.293722635368 0.126622193318 0.0682250224102 0.0437363447559 0.0496558130891 0.274430109094 0.196848029326 0 
0.515341806755 0.188375517987 0.775453109191 0.301468385904 0.132541882745 0.0730589446196 0.0452686399455 0.0577983561999 0.280083521967 0.1908788315 0 
0.5149701671 0.188073717379 0.776047732639 0.303741290347 0.134934181435 0.0787719609024 0.0495513811765 0.0720272468082 0.290013861721 0.201139968409 0 
0.516254919024 0.187753325472 0.773992129562 0.304346767208 0.134310655926 0.0830495343395 0.0440638584569 0.0798658689904 0.276403677796 0.210373391247 0 
0.521188435328 0.19267670283 0.766098503475 0.31282832586 0.142613356644 0.0872252854671 0.0522523568086 0.0763539378748 0.273712296846 0.238047950592 0 
0.520397921674 0.192304280941 0.767363325321 0.314866721435 0.149356238726 0.0793553852882 0.0468149358907 0.066599253909 0.273404727517 0.231825581498 0 
0.517567329564 0.190203843204 0.771892272698 0.306158717558 0.147849322764 0.0765019152768 0.0463154555217 0.0593683851078 0.278373905452 0.1916793219 0 
0.515480522835 0.187831582863 0.775231163464 0.311902694815 0.146798785209 0.0732528314387 0.0421498498397 0.0665554867271 0.257574765038 0.187813238638 0 
0.522282624979 0.192859173247 0.764347800033 0.317874116447 0.152965414357 0.0807207198315 0.0502344488795 0.0814480834669 0.260013437327 0.176096465648 0 
0.523368596877 0.195459917119 0.762610244997 0.323396057949 0.155660942191 0.0939355027248 0.0500772997153 0.0917566202336 0.294495678267 0.176268539471 0 
