# 5 : 4 4 4 4 4 
# Tr_f(plaq)/2    Tr_a(plaq)/3     energy       W(1,2)        W(2,2)        W(2,3)        W(3,3)        W(2,4)        W(4,4)        Re(polyakov)   Im(polyakov) 
0.898661383133 0.756680520428 0.16720871783 0.845738973448 0.79708800668 0.751317622694 0.713392481085 0.784591911889 0.948208474861 0.891354303566 0 
0.828972628556 0.609939676382 0.282195162883 0.743030429928 0.663950161808 0.59470391857 0.538103879709 0.637630339753 0.853948455759 0.797795643875 0 
0.779408410287 0.517282808861 0.363976123026 0.670140615507 0.569050458821 0.492749149739 0.432296901023 0.546037581754 0.766112438181 0.722076091942 0 
0.739472549197 0.449601947964 0.429870293824 0.614366055452 0.500111564997 0.41776039437 0.359729351019 0.470828611731 0.700854916779 0.688905488245 0 
0.71359228627 0.409855726595 0.472572727654 0.574337912552 0.440688794559 0.363196069129 0.312285776217 0.414412707467 0.630896412824 0.627156862204 0 
0.692941774766 0.380596965674 0.506646071636 0.545127455469 0.406276093165 0.323774084993 0.2765243863 0.367282575911 0.58690772326 0.601629233161 0 
0.670263088887 0.349550793323 0.544065903336 0.512655840042 0.373680368964 0.293364683083 0.240995496325 0.332303227713 0.543532449565 0.568148799027 0 
0.659330443974 0.333605438162 0.562104767443 0.490617870413 0.346459160232 0.267823514716 0.212049289286 0.302083341547 0.511523566896 0.544069151964 0 
0.651231453164 0.322624619819 0.575468102279 0.480494274537 0.329090923923 0.251981676898 0.198660607642 0.28510479498 0.504229513607 0.536143379625 0 
0.639423636514 0.308979927628 0.594950999753 0.469789367703 0.322256885275 0.248195317306 0.20086300937 0.281979393752 0.494205239058 0.519792411014 0 
0.628652551915 0.295573479046 0.61272328934 0.45488567395 0.310868809008 0.231894990892 0.177915622268 0.262992140605 0.471975898976 0.494517741521 0 
0.622435007351 0.288582034469 0.622982237871 0.448147119996 0.302684698981 0.220225173712 0.172102571625 0.244597380489 0.4502503644 0.490705849703 0 
0.617798995194 0.284493658716 0.630631657929 0.440719923439 0.296676119488 0.210528117874 0.170706139424 0.231607339374 0.44316370725 0.497244264836 0 
0.613349979185 0.280716012767 0.637972534345 0.43683243595 0.29282107879 0.210018930484 0.155659691211 0.224418099809 0.434306984639 0.4801851518 0 
0.610202435373 0.276393516855 0.643165981634 0.429207966992 0.285655211911 0.202098929908 0.149048321486 0.222909159529 0.429454752363 0.484644039723 0 
0.600699547605 0.267146637813 0.658845746452 0.41432467937 0.261876769223 0.182995427558 0.137210270118 0.197959011602 0.411289658019 0.468697689361 0 
0.595406705688 0.261036005679 0.667578935615 0.401832041434 0.251235111919 0.172651556414 0.13208447687 0.179786205472 0.419619932135 0.483807143778 0 
0.591867610252 0.254255294942 0.673418443084 0.398871140368 0.247624433291 0.170322716824 0.12993647046 0.174009067289 0.402229184438 0.456545603614 0 
0.590191013328 0.253593496628 0.676184828008 0.394866935685 0.250742376728 0.171275583819 0.128023993658 0.170872484408 0.387227068255 0.458141063522 0 
0.587057332913 0.250531514793 0.681355400693 0.393758181518 0.24076536054 0.160089091322 0.124823383011 0.16613927812 0.379344770599 0.462454553835 0 
0.587565829254 0.24685557638 0.680516381731 0.397433879912 0.243754393655 0.159005160079 0.116442280176 0.160613048485 0.381745827937 0.466447531544 0 
0.586441383501 0.247480377265 0.682371717224 0.394703964902 0.2411713416 0.15575928737 0.121387991223 0.156901097595 0.405230780109 0.480329492036 0 
0.586814537706 0.246988089374 0.681756012785 0.396555156204 0.236076943429 0.15169251487 0.11714032847 0.154110027948 0.370120321502 0.438713449782 0 
0.583212081877 0.246130949699 0.687700064903 0.390438554323 0.22516615287 0.147238158883 0.115177441783 0.148657969946 0.373649824283 0.416037181242 0 
0.584525349264 0.248645210427 0.685533173715 0.391358717224 0.224468259061 0.151934646543 0.11440216052 0.156418471242 0.375456518255 0.396453901429 0 
0.584217060925 0.24739960167 0.686041849474 0.390908480354 0.224374812816 0.158416105535 0.120142151843 0.169831303308 0.391555877004 0.400473452477 0 
0.581809435524 0.244055455758 0.690014431386 0.385792912602 0.22199198215 0.150021316698 0.115652776775 0.15384598664 0.370553685737 0.390015215717 0 
0.577962346793 0.242835451418 0.696362127792 0.379053678103 0.221660050945 0.151122800983 0.118278439766 0.152260602227 0.378150013613 0.414378272483 0 
0.574843577758 0.237782845091 0.701508096699 0.377912463856 0.220181568483 0.143673499754 0.12111601265 0.142868458371 0.354523904812 0.395395022169 0 
0.566913372741 0.232095926099 0.714592934977 0.363299559324 0.201198110138 0.129595126097 0.0994794828561 0.135573334225 0.364861207901 0.35030288068 0 
0.562158349155 0.231156769766 0.722438723893 0.355192951155 0.192159322515 0.125845883246 0.0950481408552 0.123134813333 0.342615810617 0.340341865786 0 
0.558984371597 0.225342899719 0.727675786865 0.357132660683 0.193135904087 0.12647964528 0.0970565242601 0.124223799591 0.342993048133 0.347593460697 0 
0.565106683132 0.23552549001 0.717573972832 0.370028708812 0.194738278881 0.128383052637 0.0946167524509 0.132149681467 0.345445240767 0.330284640972 0 
0.566212298661 0.23345287599 0.715749707209 0.37384611901 0.20142557149 0.134230671671 0.104344705465 0.133107644107 0.338304008227 0.329057130697 0 
0.562979883917 0.231319383456 0.721083191536 0.363988743165 0.201679258478 0.127295251799 0.0957555959739 0.136114708911 0.321518300421 0.34230523139 0 
0.559950871881 0.228068432967 0.726081061397 0.363946086073 0.20060767068 0.135013369908 0.104773787189 0.142416173977 0.343858617988 0.378860077649 0 
0.561384058155 0.227868467164 0.723716304045 0.361543952524 0.196538943529 0.127492518254 0.104942694345 0.139999963514 0.344784612447 0.383570527127 0 
0.563424078477 0.228577941515 0.720350270513 0.363192750464 0.193150679063 0.129915657886 0.0914996927714 0.143276253742 0.34711032192 0.370788798695 0 
0.560448219674 0.230233972371 0.725260437538 0.363779343028 0.199579951071 0.132797860699 0.0940864963882 0.146407801587 0.338757534649 0.371062895111 0 
0.559215459622 0.229310018294 0.727294491624 0.362943823681 0.193016962267 0.128536958959 0.0976870285464 0.141160876049 0.329693271419 0.346916193721 0 
0.560565330241 0.230146343632 0.725067205103 0.361293512046 0.188438493158 0.128025549185 0.0938300921825 0.128760106752 0.339004336811 0.361923055528 0 
0.557394350629 0.223876372687 0.730299321462 0.360056159773 0.184566588554 0.121208660315 0.0905063260745 0.125656085612 0.336720952302 0.324968729504 0 
0.556508842782 0.222195154819 0.731760409409 0.351682965247 0.182856287148 0.118118192811 0.0824720030774 0.130449138988 0.34603664563 0.334116780063 0 
0.560319530305 0.226010747312 0.725472774996 0.360429302233 0.18195155483 0.121557069551 0.0777019471259 0.121780836561 0.33258571488 0.32369954714 0 
0.558499218853 0.226579734572 0.728476288893 0.355690445719 0.183521735378 0.124681627403 0.078838599417 0.123755368113 0.33280612307 0.345906726487 0 
0.554564775308 0.220427994859 0.734968120741 0.355675804378 0.185599506511 0.127823317873 0.0873038290838 0.132052262877 0.343323923228 0.359165828481 0 
0.550984139413 0.217533229301 0.740876169969 0.347449796192 0.174884924386 0.114557699333 0.078680501245 0.111938364896 0.349041513589 0.359296751473 0 
0.549516713045 0.215957715261 0.743297423476 0.348868222384 0.182190500943 0.116315530597 0.0784379820424 0.115573469046 0.336722442789 0.348851218196 0 
0.549889542675 0.218348496184 0.742682254586 0.346306994309 0.171778467943 0.11060420433 0.0798350276912 0.112067646226 0.321553302238 0.331506285327 0 
0.546668521228 0.213377114685 0.747996939973 0.346083346094 0.17778011931 0.114006701381 0.0785464012289 0.116697686464 0.332793417674 0.352170986584 0 
0.547596816815 0.21798351169 0.746465252255 0.342364531058 0.177861930767 0.114056734691 0.0781830407528 0.122216686511 0.330024146426 0.332742117827 0 
0.552338451614 0.225278569775 0.738641554838 0.346683946211 0.183125274986 0.123917705277 0.0781536008836 0.131811075103 0.341460799179 0.343797453224 0 
0.550670973839 0.220885974135 0.741392893165 0.346980091004 0.176293413724 0.113845410556 0.0847061168289 0.125685983041 0.328444443442 0.341060607064 0 
0.549185550665 0.216416037134 0.743843841402 0.352686049778 0.182205823659 0.118893414046 0.0879699584868 0.140445796588 0.33396099722 0.364809667528 0 
0.549612238326 0.219196827462 0.743139806763 0.350427599297 0.179253617192 0.111517488145 0.0840619796046 0.125873742028 0.338589759833 0.353296069228 0 
0.550182790349 0.220365083483 0.742198395924 0.346355026463 0.175113888026 0.106706707485 0.0814876177435 0.121204395446 0.338000660316 0.338540529821 0 
0.549041300461 0.218629476702 0.744081854239 0.343608761337 0.178115596254 0.116713122054 0.07930329994 0.123483001502 0.338403326864 0.368089747368 0 
0.547776202123 0.217245043852 0.746169266498 0.340656661459 0.179495170395 0.111321307647 0.0696025969534 0.117723859759 0.333495993055 0.333449944289 0 
0.545913452482 0.211895495868 0.749242803406 0.341399896535 0.178173442249 0.111852797953 0.0714873262705 0.127631910251 0.31765921034 0.341318334851 0 
0.540123334886 0.206323856246 0.758796497439 0.330703274499 0.174405076309 0.105824949509 0.0569417812582 0.121471708996 0.327189079044 0.333647540015 0 
0.543694046789 0.212608828584 0.752904822799 0.33336464466 0.165921726609 0.0955036873661 0.0550536540163 0.0981442451704 0.317326235436 0.323511211728 0 
0.542008240592 0.210773519878 0.755686403023 0.328093324638 0.158662493085 0.0927699507239 0.0557963247538 0.0865580126236 0.31534368838 0.340128099427 0 
0.543115381812 0.213348811661 0.753859620011 0.331453736295 0.162446064736 0.0913291821577 0.0621269343558 0.0945665688821 0.317402146694 0.344633350602 0 
0.540319673223 0.210490177928 0.758472539182 0.330015816365 0.165661798824 0.0886215377546 0.0537845040867 0.0933167033676 0.312046270062 0.341375220829 0 
0.538910388442 0.20902762372 0.760797859071 0.329336036715 0.170375458527 0.0833766228133 0.0565370831689 0.0894439972663 0.316015079928 0.350589783204 0 
0.543759183215 0.213757815698 0.752797347695 0.336136899257 0.176095071355 0.0939052289077 0.0703740040235 0.080493042936 0.325149811739 0.338176022209 0 
0.543951214407 0.212418772566 0.752480496229 0.340083819688 0.179650505738 0.0938918511425 0.0759051760811 0.0881712748096 0.336185044561 0.35766031598 0 
0.545265505545 0.213384019168 0.750311915851 0.340462086146 0.176894998227 0.0968708409029 0.0641680367916 0.101677717936 0.325736004034 0.356598009085 0 
0.546017507039 0.215860368882 0.749071113386 0.336727810074 0.178500840235 0.105663613851 0.0676037281136 0.102166846301 0.317693076502 0.334753802666 0 
0.548434278801 0.215617168667 0.745083439979 0.34294962322 0.178231775908 0.110196131394 0.0692374490892 0.105832898613 0.324442632176 0.344079557297 0 
0.542808728075 0.209100140554 0.754365598677 0.337168874025 0.174864789696 0.105624187436 0.065395022615 0.106396946304 0.317287414102 0.347166155012 0 
0.549786988558 0.217544989271 0.74285146888 0.340405044438 0.17379259791 0.102695770313 0.0740790981985 0.0922469873705 0.313400522242 0.359063448983 0 
0.551621389803 0.219857233389 0.739824706825 0.337372023985 0.174120676253 0.111016927543 0.078116463645 0.106972364429 0.323039057287 0.370415524785 0 
0.555363499193 0.224190840483 0.733650226332 0.343857607597 0.182899231608 0.117756622837 0.0771845444521 0.113338903342 0.317685389947 0.369425090049 0 
0.545876148522 0.21217825433 0.749304354939 0.336355899377 0.172670756052 0.112605665667 0.0681215844555 0.114398402046 0.311337067099 0.338532734166 0 
0.546178396867 0.213817238689 0.74880564517 0.340280947518 0.170995668051 0.108996075942 0.0692888027828 0.111859062096 0.323017670974 0.322185800011 0 
0.548713841805 0.216361373295 0.744622161022 0.339857751285 0.172613622361 0.106957108892 0.0678586533365 0.108109130316 0.330548677843 0.321682260912 0 
0.54563687985 0.217791198765 0.749699148248 0.336430619404 0.172869943565 0.106067430526 0.0701444605678 0.101780642342 0.339904001397 0.324029464791 0 
0.541216304877 0.209408460416 0.756993096952 0.332310704842 0.177045260189 0.113681418134 0.0675193059978 0.11136455843 0.328951014368 0.309110072775 0 
0.537928357536 0.207295777854 0.762418210066 0.329341272488 0.17447339041 0.106070796342 0.0678303381441 0.0988817251906 0.301578250325 0.305063415941 0 
0.536403475196 0.206473311364 0.764934265927 0.328969974883 0.168870780587 0.107070958231 0.0657757332149 0.10125671486 0.289998715682 0.289794517868 0 
0.534223943414 0.204302902639 0.768530493367 0.320779762167 0.164843678118 0.102391797134 0.0586711016726 0.093268296521 0.29898816206 0.305832148735 0 
0.536384410973 0.207675145679 0.764965721895 0.322088651263 0.156793639613 0.100116331905 0.0682957713781 0.109755653699 0.304892621596 0.304987513805 0 
0.534127431095 0.20583128597 0.768689738694 0.327466049499 0.156909984848 0.0921547866553 0.0608886896643 0.0918932454876 0.302095205016 0.332192108253 0 
0.539807618604 0.210969183863 0.759317429303 0.329099989753 0.156567095797 0.0887805335691 0.0553572061844 0.0761535232823 0.302924437824 0.325294193232 0 
0.53723419605 0.209082911816 0.763563576517 0.329952762448 0.157984085285 0.100007411278 0.0649591582228 0.081324898456 0.307675218848 0.316116714592 0 
0.537319978196 0.208731306661 0.763422035977 0.32216648596 0.152161012072 0.0969622932385 0.0690388193344 0.0897890092692 0.322683595599 0.318495966583 0 
0.537636029922 0.207931110429 0.762900550628 0.326351007104 0.158861077492 0.0898516759891 0.0770306686495 0.0934552384213 0.305797688325 0.287191154638 0 
0.542256951908 0.212108614177 0.755276029352 0.33185980859 0.15994395983 0.0990759956007 0.076841658158 0.094499855502 0.313211600526 0.304904036407 0 
0.544010544301 0.213329087736 0.752382601904 0.33604649215 0.160354964444 0.0955873488334 0.0751410253205 0.0879970906914 0.302985325979 0.306192454494 0 
0.537176830672 0.206039400866 0.763658229392 0.328216313279 0.155864688814 0.0960573464198 0.0767385347342 0.0852246995476 0.310148152579 0.301749435438 0 
0.534888471371 0.206266796075 0.767434022238 0.318959209937 0.155611931116 0.091697126398 0.07141008419 0.0907898694543 0.294933958297 0.298581967547 0 
0.537140831405 0.207034721737 0.763717628181 0.330133710453 0.1682215427 0.0924229025524 0.0598730752835 0.0906324944657 0.303546658184 0.275389637605 0 
0.536717253989 0.204221911514 0.764416530919 0.325124343044 0.160653948467 0.091103475616 0.0591852799518 0.0878671569522 0.308364142311 0.286092079442 0 
0.53637708575 0.202331241465 0.764977808512 0.323208038308 0.161833690172 0.0989930528826 0.0564024363186 0.0848789647183 0.29088814189 0.288682805985 0 
0.533644840934 0.200662750067 0.769486012458 0.324306113824 0.164504897958 0.101378764586 0.0612576434157 0.0736041611103 0.300357607705 0.288003401489 0 
0.536565823732 0.20779917583 0.764666390842 0.322144311446 0.16751786536 0.105329435703 0.0733292520608 0.091034433802 0.300650743431 0.289993716995 0 
0.535879363553 0.205749737129 0.765799050137 0.327388145182 0.167709894736 0.101893764087 0.0633661715695 0.0844149939147 0.318631082079 0.270939915678 0 
0.534086675526 0.206498355904 0.768756985382 0.320711522117 0.157649964265 0.0946604511284 0.058877635824 0.078545218628 0.30032511164 0.263443312863 0 
0.533236483887 0.203466737002 0.770159801586 0.320452997818 0.164080657891 0.101733040634 0.0561103060172 0.0895115375966 0.312719337808 0.300641904761 0 
0.536095032263 0.206520448063 0.765443196767 0.320692352919 0.168049953288 0.0992701141738 0.0555374353313 0.0744553650891 0.290424915791 0.303900457711 0 
0.536806092662 0.207365618706 0.764269947107 0.322116202966 0.154428545076 0.100520841603 0.063111234759 0.0793487873897 0.285386079914 0.294958165022 0 
0.534435943099 0.20509930404 0.768180693887 0.315956545813 0.151444720907 0.0920163080962 0.0700624128742 0.069213354586 0.292062635586 0.286206763894 0 
0.537431299327 0.206655000045 0.763238356111 0.320220221378 0.159752139219 0.0969668593266 0.0662421188229 0.0802691382829 0.306186945736 0.272725132776 0 
0.532560817686 0.202179509454 0.771274650818 0.318713808538 0.157168760109 0.0927791625005 0.0620155737216 0.0819678099305 0.28989543967 0.254620675285 0 
0.532354974037 0.202780213457 0.771614292839 0.320993847712 0.158828773159 0.0945054137933 0.0607233532347 0.0921046280666 0.285558386444 0.257678748979 0 
0.53586685719 0.204257034251 0.765819685637 0.328501630761 0.157979500769 0.105626185909 0.0732509235129 0.0863977634733 0.307940007588 0.314216937675 0 
0.53531150811 0.205176340768 0.766736011619 0.321255517017 0.150189897919 0.0958630478986 0.0727351199573 0.080976877295 0.311127541349 0.293469186877 0 
0.534217622646 0.201664076275 0.768540922635 0.320234256051 0.154403638359 0.0929656832717 0.0677541600091 0.0815191846049 0.306647343788 0.305945808173 0 
0.534053104551 0.203683711751 0.768812377491 0.32465871618 0.157660826244 0.101009714749 0.0698522465627 0.0921327140227 0.314121266986 0.314476558179 0 
0.536785939145 0.205590020572 0.764303200411 0.323394445148 0.166913207811 0.104987981236 0.0687273762021 0.0978749452325 0.317219075353 0.331887226774 0 
0.537638616233 0.208963284136 0.762896283215 0.32314576335 0.158381611568 0.0971304734594 0.0699912238188 0.0830371797275 0.335602052724 0.346142729072 0 
0.542137071011 0.210843121927 0.755473832832 0.330700641894 0.163467471342 0.10501947287 0.0698739982435 0.104118885823 0.295711629344 0.320463980511 0 
0.543639245273 0.214923892226 0.752995245299 0.32889233021 0.161893540489 0.0998221565605 0.0744293114106 0.0903880707692 0.304407830758 0.324296307702 0 
0.544868393192 0.213398567999 0.750967151234 0.331043383199 0.163072873142 0.0874396365453 0.066320739053 0.0752650953075 0.307715283192 0.322229349264 0 
0.540543184537 0.21043938326 0.758103745513 0.329282201475 0.1567319379 0.0920696903995 0.0546792332398 0.0716330058856 0.290222551926 0.302428255061 0 
0.545243856165 0.214566679869 0.750347637328 0.337750101688 0.162020625112 0.0997534353159 0.0694672483557 0.0882388053594 0.310997503397 0.30957005713 0 
0.541926191558 0.211198868611 0.75582178393 0.330519768665 0.157190266704 0.089686554596 0.0557950126891 0.0750392736469 0.288673608568 0.283746832734 0 
0.541056857182 0.211054407581 0.75725618565 0.330111772715 0.163709765946 0.0963946334196 0.0566393214735 0.0952923111156 0.301966177783 0.280579835163 0 
0.542232935669 0.209609166239 0.755315656147 0.332884808643 0.169917835296 0.0996527049848 0.0611646255343 0.108811992441 0.306309262572 0.271953954993 0 
0.541252300012 0.208075386135 0.756933704979 0.332318593615 0.160840157093 0.0900264496738 0.0608531988217 0.0971095253445 0.29805336932 0.255284045169 0 
0.543046186213 0.215381975613 0.753973792748 0.331386595246 0.159821032823 0.0912777683396 0.0688628481908 0.0989249546846 0.324826108786 0.244433633158 0 
0.542371226894 0.214177095435 0.755087475624 0.332107098048 0.15932230942 0.0979642247999 0.0676130325448 0.0966055661448 0.322947397239 0.250118203007 0 
0.542181338952 0.211586025888 0.75540079073 0.332449605005 0.158749184292 0.095688559907 0.0655201069797 0.0899445509932 0.309401555244 0.259865994396 0 
0.538434188906 0.206779468563 0.761583588304 0.324694059273 0.160579162626 0.104998720562 0.0681371401137 0.0970206439906 0.312028357685 0.272190290194 0 
0.541864406264 0.208815650607 0.755923729664 0.332340253389 0.160501086275 0.102264794378 0.0666649030324 0.0927886114789 0.318933582779 0.272748607249 0 
0.54649195119 0.21599220387 0.748288280536 0.334748574097 0.171014578135 0.109720832503 0.069485050818 0.0988453312821 0.328603687688 0.286970882917 0 
0.546467480174 0.21816774011 0.748328657714 0.338640461668 0.173856834047 0.104872988074 0.0730676651246 0.0943743739457 0.308280363897 0.328321333086 0 
0.545234887325 0.217033463639 0.750362435913 0.341086657936 0.169193830465 0.0945165596425 0.0689471520716 0.09613642707 0.318127057027 0.319165723501 0 
