# 5 : 4 4 4 4 4 
# Tr_f(plaq)/2    Tr_a(plaq)/3     energy       W(1,2)        W(2,2)        W(2,3)        W(3,3)        W(2,4)        W(4,4)        Re(polyakov)   Im(polyakov) 
0.890280105614 0.738868395234 0.170065836298 0.835015412553 0.784509653185 0.736640778312 0.695844398433 0.774111886289 0.942806847656 0.887035776512 0 
0.81559694727 0.584115316816 0.285824731731 0.725821835246 0.635829581747 0.562548269652 0.512176267321 0.605542543072 0.827985148923 0.791625752039 0 
0.762652875216 0.488263238364 0.367888043415 0.646472709607 0.541470237759 0.466698636933 0.412461179406 0.510477251659 0.747172281277 0.739009426615 0 
0.722116988211 0.422799337555 0.430718668273 0.588136443073 0.473686621982 0.397500810345 0.335575876106 0.442762962881 0.669869340002 0.681748341108 0 
0.689499711082 0.376981768864 0.481275447823 0.536878369627 0.41381952413 0.32911134858 0.269451997061 0.360618045783 0.595305218454 0.631197513762 0 
0.666460555618 0.344870805389 0.516986138793 0.507095443715 0.374148513449 0.289495580286 0.241930720727 0.322988132348 0.542138210472 0.586394519022 0 
0.650605846695 0.323501577768 0.541560937623 0.483758859929 0.344869833135 0.262148820352 0.20956219848 0.293302298028 0.521146012363 0.558850261963 0 
0.635944003947 0.304827461856 0.564286793882 0.462014735056 0.327294701368 0.254402569507 0.200487479667 0.288298432296 0.503981364544 0.54413163299 0 
0.624974709084 0.29356872151 0.581289200919 0.44903705623 0.307724360995 0.229944249663 0.181707929486 0.260787308788 0.476864535305 0.50329026285 0 
0.612943133309 0.278229990549 0.599938143371 0.432282967193 0.292613232773 0.208858076624 0.162019797717 0.234488418568 0.46185414465 0.494474332777 0 
0.604070453832 0.269174716671 0.613690796561 0.419740686069 0.278145146423 0.192816391351 0.153667571695 0.204224300724 0.425867197357 0.485559767023 0 
0.596057319785 0.260860003937 0.626111154333 0.409880667012 0.263339729094 0.182869754898 0.138726422579 0.198101709528 0.385356827916 0.473472605665 0 
0.594432345779 0.259469219422 0.628629864043 0.412167231942 0.260436762515 0.189594917407 0.140451651759 0.209636512452 0.399262168192 0.413184320093 0 
0.587303217286 0.252175957002 0.639680013207 0.402942875674 0.2481209393 0.180060673315 0.128727525367 0.206144110781 0.382075531135 0.400725252796 0 
0.584117586989 0.251711247773 0.644617740167 0.39714325989 0.242703614597 0.179624815805 0.129377132411 0.219732021636 0.394582615502 0.402911365683 0 
0.573552633534 0.24161549539 0.660993418023 0.380469511633 0.230045601592 0.169485994798 0.121634986168 0.205519586402 0.396324267033 0.401572618448 0 
0.569873597205 0.235193888111 0.666695924333 0.378474732961 0.227644292873 0.167701080869 0.125681310469 0.195720377226 0.376659620246 0.38668079281 0 
0.565910660221 0.229787649304 0.672838476658 0.371337812294 0.212290441308 0.145013050178 0.107344030698 0.165450994384 0.352548463279 0.365417461375 0 
0.560753940925 0.224535159855 0.680831391566 0.359966082035 0.199833532458 0.130726154036 0.0976554952009 0.136464108551 0.349806009918 0.354112834732 0 
0.556556212128 0.221370033543 0.687337871202 0.352793081898 0.19764874566 0.131734798689 0.0964037438282 0.135072086381 0.365254772784 0.364839480559 0 
0.556471065604 0.227374376584 0.687469848313 0.360853951801 0.203959769739 0.134294389375 0.0966701099954 0.135900152373 0.359286386344 0.358251868911 0 
0.553604490946 0.223000262826 0.691913039033 0.351108119506 0.195295822295 0.136017231669 0.10291895265 0.143882160195 0.357326582416 0.328721765727 0 
0.551109503372 0.218260648299 0.695780269773 0.350092391579 0.191350366562 0.126774098121 0.089565776732 0.137080607222 0.328426848988 0.298170748092 0 
0.545364051062 0.214349831313 0.704685720853 0.34314481408 0.184885180969 0.11806789718 0.0793202046435 0.133132645508 0.329532730628 0.280927891762 0 
0.541164840662 0.210685200231 0.711194496974 0.339326188304 0.182734845973 0.119933331443 0.0819032031501 0.132010525188 0.326512041282 0.286991859217 0 
0.538716243282 0.208241682986 0.714989822913 0.329842048441 0.173998900907 0.11266386661 0.0810369871063 0.124567177007 0.328842308866 0.303903413353 0 
0.533543057414 0.202406522516 0.723008261009 0.330747669241 0.181686510443 0.115305082466 0.0841183067353 0.132350506533 0.332752907339 0.290492135589 0 
0.534585170973 0.202844472574 0.721392984991 0.328744009853 0.176176703544 0.107147519859 0.0785029101567 0.121926747629 0.31951735252 0.292104135343 0 
0.527348537613 0.193310685015 0.732609766701 0.323070638029 0.169155187928 0.102207840253 0.0765576390879 0.119909765787 0.334000689599 0.270687813332 0 
0.528993868453 0.196857681903 0.730059503898 0.322855554889 0.173798989044 0.1099011377 0.073731562887 0.121491267572 0.295639637548 0.276030838389 0 
0.533191268409 0.20289967069 0.723553533966 0.324123388821 0.169291701902 0.113317356367 0.0653570540235 0.114180940411 0.292713153123 0.268353738733 0 
0.526766630203 0.194114584705 0.733511723186 0.31782212624 0.157293744374 0.100569633811 0.0661080015312 0.109837128247 0.306548818824 0.229846100313 0 
0.528078365347 0.196725002518 0.731478533712 0.32259891893 0.157424358795 0.0975120523646 0.0650630406585 0.101180816943 0.321300229643 0.275301734365 0 
0.529449523656 0.195633235412 0.729353238333 0.321839373265 0.15510258701 0.0986912274777 0.063638793441 0.0998040901054 0.293799359582 0.258651437438 0 
0.527166872012 0.19537554472 0.732891348381 0.319902853201 0.161270100335 0.100135928903 0.0634062757567 0.109171849136 0.300858471661 0.282776753305 0 
0.528403646875 0.198430955542 0.730974347343 0.32324583659 0.162312001366 0.102140876584 0.068383008486 0.116651402643 0.321313099369 0.273434464828 0 
0.527564310238 0.197213580024 0.732275319131 0.32548902881 0.167358161928 0.105354426409 0.0713643494642 0.106690282807 0.316412188838 0.263815509162 0 
0.525035504901 0.198288859076 0.736194967403 0.317679578256 0.152857293097 0.0958176725962 0.0647296139302 0.0970497207665 0.306517770382 0.249822765649 0 
0.521777711903 0.195470235999 0.74124454655 0.312685825681 0.146768543208 0.0882138924223 0.0639670952272 0.09232442677 0.299812708451 0.232091899799 0 
0.522457872904 0.194835083071 0.740190296999 0.314860294927 0.148029512303 0.077845306936 0.055479239282 0.0818997822226 0.302892151771 0.255980042917 0 
0.525832597099 0.197690846629 0.734959474496 0.320292965788 0.150129943433 0.0813615707304 0.0524765165713 0.0836841710431 0.301091745715 0.257813621942 0 
0.52231580759 0.192516210222 0.740410498236 0.313205354969 0.147570458371 0.0808099381247 0.0451657000329 0.0883513901786 0.287224806676 0.205424097509 0 
0.527201056641 0.199112231505 0.732838362206 0.318129069046 0.1422336451 0.0788343316931 0.0491193988348 0.0812274345697 0.291505553627 0.217856499839 0 
0.523632427039 0.192292578885 0.73836973809 0.313424438512 0.141222513827 0.0845467242863 0.0497862283953 0.0718206815411 0.304935588762 0.201514512739 0 
0.514639153431 0.189126730381 0.752309312182 0.304276983063 0.135861027583 0.0846818638364 0.0468257940973 0.0724420089434 0.300125066022 0.260917261079 0 
0.508474733284 0.184702799032 0.76186416341 0.299463044647 0.139230971043 0.0775628876549 0.0473802660003 0.0760061086932 0.292828159947 0.249089828255 0 
0.502281503232 0.180048617777 0.771463669991 0.291583878908 0.136832297561 0.0741250401427 0.0488261584257 0.0715807343618 0.301380872295 0.27654969794 0 
0.50518697196 0.176294797888 0.766960193463 0.295554105594 0.13526903704 0.072991989433 0.0477882359381 0.0780201460799 0.30604519097 0.269201982919 0 
0.504528342118 0.175052368035 0.767981069717 0.292057709593 0.130684044311 0.069164795608 0.0482823108179 0.0739655534074 0.296615626339 0.250024793866 0 
0.508012313614 0.183266512931 0.762580913898 0.287087890723 0.129303584744 0.0698820881936 0.0468126226613 0.0812268300359 0.304160587541 0.261106531886 0 
0.511658810589 0.184529179487 0.756928843587 0.291915215515 0.127281191189 0.0687960489943 0.0465262498247 0.071094855208 0.277030486182 0.26434267948 0 
0.505317193953 0.176557582099 0.766758349372 0.288257577439 0.128207904 0.0697286108141 0.0419788645665 0.0774211034026 0.323011764693 0.24878926583 0 
0.505031578694 0.174690307433 0.767201053024 0.289003742895 0.134253973975 0.0716655406532 0.0429415073067 0.0726463457377 0.29564071496 0.231522800759 0 
0.506803396854 0.176802996442 0.764454734876 0.295855628396 0.135266515175 0.0756862427663 0.0455080042796 0.0716425776049 0.291584767501 0.239402573456 0 
0.508819286918 0.179735331294 0.761330105277 0.297772216084 0.133266990879 0.0704667452702 0.0478234050517 0.0713143358827 0.278009535468 0.227090043434 0 
0.507082355009 0.179298253679 0.764022349735 0.290447947379 0.12527265944 0.0649459138601 0.0477352076037 0.0523243274871 0.294421862918 0.244841187278 0 
0.503555985871 0.175431823442 0.7694882219 0.283992748364 0.121519479737 0.0652654320782 0.0456858989844 0.0591825440389 0.278518120998 0.233628437064 0 
0.504355710974 0.177697330379 0.768248647991 0.281959523316 0.113614906006 0.0638798391137 0.0430602290648 0.0693492974249 0.285375101229 0.22816189423 0 
0.505500549163 0.17843145899 0.766474148797 0.283415517545 0.113384066916 0.0632735561769 0.0416247167036 0.0658844456582 0.281862056433 0.204527429272 0 
0.501434318949 0.178593923399 0.772776805629 0.277202209415 0.108143659714 0.0600674597651 0.0396479449637 0.0664095239094 0.278449704693 0.197471720739 0 
0.502685529851 0.180932065259 0.77083742873 0.280435518149 0.110821359684 0.0529820741472 0.0405301444142 0.0628455315326 0.259330984579 0.206746427776 0 
0.499310635009 0.179679650749 0.776068515736 0.280637185406 0.109213163368 0.0602567331577 0.0342561896871 0.0754051157543 0.262151725003 0.208916192568 0 
0.500563892393 0.178651599123 0.77412596679 0.280142022281 0.111705795992 0.0581122290413 0.0275711719127 0.0688519050843 0.252878738254 0.235197760301 0 
0.497414105153 0.174933660834 0.779008137013 0.271916289369 0.115145678671 0.0623344288788 0.0359122368567 0.067408377173 0.268878930477 0.242774991453 0 
0.494942641763 0.175278587457 0.782838905268 0.266644699188 0.10659887199 0.058008757731 0.0381512533568 0.055045868353 0.268999132906 0.220492093607 0 
0.494601726099 0.173224775419 0.783367324547 0.268558373369 0.113084267202 0.0578349895281 0.0306417569502 0.0598260175612 0.258005425837 0.224331796269 0 
0.49619618165 0.171076022876 0.780895918442 0.268583603371 0.116614384573 0.064583557456 0.036290667148 0.064990190494 0.24029038244 0.207673825993 0 
0.491962812625 0.16784472541 0.787457640431 0.265364945025 0.112937151804 0.0661162904847 0.0412264444494 0.0546658779902 0.264635238503 0.187956649969 0 
0.486939127642 0.162207157318 0.795244352155 0.25978925815 0.108109108279 0.0613052468739 0.0297141447099 0.0583263041045 0.26116505094 0.165143390398 0 
0.48622211121 0.165791053091 0.796355727625 0.259355690419 0.108127608152 0.0540852898393 0.033013661083 0.0530191040241 0.255794484628 0.15538529455 0 
0.486526815755 0.168186207224 0.79588343558 0.261530931334 0.106838166139 0.0534625271094 0.0372863310987 0.0529722229008 0.264145674028 0.143978503731 0 
0.484859421396 0.162374343063 0.798467896837 0.260129378594 0.107275977328 0.050457227954 0.0300188861641 0.0388252289545 0.24173180368 0.144881243101 0 
0.484833923042 0.163403867304 0.798507419285 0.255681102545 0.0999599534202 0.0475670497994 0.0216028231641 0.0360516091472 0.260791852508 0.144074320787 0 
0.481647359286 0.162784297362 0.803446593107 0.258923012786 0.103455717419 0.0435801071406 0.0222879311141 0.0347843283032 0.267449660577 0.140597756676 0 
0.484862711285 0.168492376404 0.798462797508 0.260008996913 0.104420970532 0.0470297274997 0.0239920667996 0.039308599967 0.280897112135 0.14480581112 0 
0.484987344315 0.167569866333 0.798269616311 0.262411265361 0.0967426488161 0.0497528644205 0.0240699733571 0.0408085099247 0.274258131546 0.124916708268 0 
0.479563262706 0.163520231088 0.806676942806 0.259944591213 0.0912274939388 0.049065064388 0.0217531812705 0.043533453491 0.244297076898 0.100176935933 0 
0.475416808787 0.160535014839 0.813103946381 0.257069066573 0.0957483912097 0.0454026125134 0.0164821790404 0.0403236693958 0.251218423206 0.0733291661142 0 
0.477471750465 0.161731367289 0.809918786779 0.257256102631 0.10394073026 0.0500742306709 0.0293919616059 0.0329656007625 0.235754205482 0.101130677741 0 
0.478601679111 0.165904247091 0.808167397378 0.261043984439 0.106414372036 0.0571206812364 0.0282358835425 0.0466069589873 0.262831849122 0.117152935404 0 
0.480953928727 0.164818172122 0.804521410473 0.257623960876 0.101379738243 0.049365800552 0.0245929190493 0.0421949294977 0.265727323965 0.12964138952 0 
0.481337988698 0.167829209458 0.803926117518 0.257715404371 0.0967152954801 0.0410584619237 0.0136072961644 0.0420077832245 0.282730012634 0.150979304457 0 
0.480809016851 0.1636217014 0.804746023881 0.254611590593 0.100440049621 0.0517690587284 0.0216520448295 0.0497763085201 0.278130959007 0.173888164239 0 
0.481352522704 0.166441000165 0.803903589808 0.257887143827 0.104525281491 0.0549738051003 0.0227113214566 0.0474927321834 0.242558871407 0.149131374317 0 
0.478373879388 0.161728163838 0.808520486949 0.258151956038 0.108737593639 0.0544655176334 0.0319273617803 0.0460573727793 0.269306636328 0.191011796843 0 
0.475335626889 0.159209679809 0.813229778322 0.252767669195 0.0993505216155 0.0475569784287 0.0286089682952 0.052090563006 0.266535630267 0.142294437737 0 
0.477672425131 0.162122637224 0.809607741046 0.257044582116 0.0984505449851 0.0442853230337 0.0244035191748 0.0383935631515 0.270387075282 0.160924927254 0 
0.478779758133 0.165133529348 0.807891374893 0.257174164094 0.0977246744319 0.0535646029058 0.0227883397348 0.0559276570444 0.293302627904 0.177595804409 0 
0.47662148759 0.16032235768 0.811236694236 0.254684455628 0.092581220359 0.0501811280029 0.0300329591609 0.055402322909 0.284838531017 0.199540689756 0 
0.470202978837 0.153485230259 0.821185382803 0.251309480796 0.095191129659 0.0481730682978 0.0315766983872 0.0435274728856 0.276073597447 0.179424466082 0 
0.474416372536 0.159097417643 0.814654622569 0.248262525387 0.0928753589913 0.0441277428512 0.0265510002588 0.0451987613805 0.282753871345 0.172137308668 0 
0.474867370974 0.157874697457 0.81395557499 0.2482151206 0.0904840870582 0.0417019215425 0.0233433589669 0.0400456015463 0.257582779134 0.169097669373 0 
0.473805767609 0.158528666395 0.815601060205 0.243267814361 0.0807452386343 0.0401614570267 0.0288052352263 0.0352129036623 0.267553390515 0.161992567428 0 
0.471380540328 0.158821878237 0.819360162492 0.242263193577 0.0826716325142 0.0378086684423 0.0230160530542 0.0306685624802 0.285880051131 0.165002787381 0 
0.471191905844 0.162361489483 0.819652545942 0.247537993562 0.0876309829021 0.0385769291689 0.0228594128479 0.038207163151 0.266487954302 0.141973919571 0 
0.472175553738 0.161478730741 0.818127891706 0.245653660928 0.0813773826125 0.04017139916 0.0249519532807 0.0320556721432 0.27158397106 0.120083040128 0 
0.470066779895 0.157467960382 0.821396491162 0.243369088816 0.0833548221449 0.0343935780729 0.0269422433096 0.0283004459038 0.254695331383 0.0960158185688 0 
0.471637303291 0.159982773835 0.818962179899 0.25276222806 0.0907248997561 0.0437971709585 0.0224821006489 0.0390135727887 0.281980588402 0.109662697065 0 
0.470323153136 0.15714353456 0.820999112639 0.247198764492 0.079571594455 0.0363157846257 0.0229935650837 0.0294530160689 0.288381049688 0.107923451996 0 
0.465568343691 0.150772931881 0.828369067278 0.244240498346 0.0763252469511 0.0387127703767 0.0161848244371 0.0285564528319 0.258105246903 0.132078584723 0 
0.464037568173 0.147286345911 0.830741769332 0.244436289713 0.0781828892679 0.0357631582546 0.00826312397439 0.0331810524377 0.257845833481 0.148545771256 0 
0.467430891729 0.1556197114 0.825482117821 0.242827165251 0.0777695306446 0.0260029803445 0.000715800147427 0.02181931122 0.264421332104 0.138166577346 0 
0.464450452129 0.1507857879 0.8301017992 0.240290594681 0.0787559148904 0.0226534938466 0.0119387011647 0.0126045444183 0.263128283373 0.164314234156 0 
0.468531048101 0.157655427426 0.823776875443 0.238869504933 0.0791269780684 0.0250369460436 0.00841981676071 0.0183342643744 0.250617361385 0.137466976102 0 
0.472313773909 0.155516606387 0.817913650441 0.245009720027 0.0855665427493 0.0333899925774 0.00956854631837 0.0336386118635 0.274184114664 0.129752509614 0 
0.472746618287 0.159258466937 0.817242741655 0.249130841067 0.0891744584069 0.0349450045132 0.0107005974956 0.0257828297759 0.238460304503 0.115719100334 0 
0.472141921488 0.155351332713 0.818180021694 0.245582037403 0.0887970870379 0.0375580364835 0.0106133301437 0.0244254590925 0.248177993159 0.122249871394 0 
0.471155301591 0.154229567488 0.819709282534 0.24118040394 0.0903433055323 0.036958550051 0.0235904656055 0.029431716921 0.231052768361 0.144874853822 0 
0.467797365964 0.157742109395 0.824914082756 0.237995337617 0.0884408434857 0.0399558390183 0.0308932711854 0.0232803001815 0.24272430286 0.142023227689 0 
0.46856223399 0.15465183981 0.823728537315 0.238638870316 0.0794958581165 0.0365713978492 0.0206371505592 0.0445123295001 0.265088049745 0.11329402444 0 
0.46330960598 0.151282974121 0.831870110731 0.230428797987 0.0809544557173 0.03886370901 0.0177282238281 0.0382974447211 0.253543527874 0.126074427412 0 
0.464420241624 0.154199559951 0.830148625484 0.234927206174 0.0808552688912 0.0382078584872 0.0143228551159 0.0427989500265 0.260561543998 0.123991815423 0 
0.467449671846 0.155315809139 0.825453008638 0.240412351566 0.0752705865073 0.0314665544806 0.0117080569555 0.0307276193369 0.249687443941 0.119380587659 0 
0.465363744319 0.155080255903 0.828686196305 0.236934201308 0.078678300016 0.0338066610802 0.0108075254904 0.0263191981527 0.234252932839 0.101233461043 0 
0.470735465464 0.156711257224 0.820360028531 0.239767160498 0.0779600054508 0.02731575571 0.00808412648635 0.018714401308 0.222700512099 0.115956974547 0 
0.463378160735 0.15057175784 0.831763850861 0.228604910648 0.0660877356104 0.014126034462 0.00630936305299 0.0189035197363 0.229256634672 0.0989359114982 0 
0.462732702468 0.149222170515 0.832764311175 0.229266407743 0.0715412114943 0.0250438050834 0.00681023439191 0.0208126178568 0.244446169022 0.12910504628 0 
0.468324251513 0.158774470257 0.824097410155 0.235098268473 0.0784534776942 0.0331604093748 0.00348840022353 0.017964543082 0.253852786998 0.112031494285 0 
0.465103306056 0.151498170356 0.829089875613 0.232502162752 0.0774843948743 0.0313780346574 0.00943363749124 0.0182793443664 0.260788088077 0.0927512490781 0 
0.462722585859 0.149378254784 0.832779991918 0.235247636343 0.0749904679092 0.0291546485705 0.00709862323453 0.0194657815483 0.240837627867 0.127556911266 0 
0.463264889513 0.151325521753 0.831939421255 0.237965874774 0.0711133376218 0.019031235922 0.00844746112206 0.0265736943227 0.245101162242 0.118126805886 0 
0.45855556859 0.150189468141 0.839238868686 0.232294019448 0.0627885966771 0.0236382625652 0.0041250172785 0.0224813298924 0.242037077398 0.094658966162 0 
0.459852106449 0.148428601407 0.837229235005 0.226442306774 0.0604852847701 0.0210598303974 0.00723135648897 0.0115001094313 0.253000229538 0.0918343260833 0 
0.453871058915 0.140691290137 0.846499858681 0.225831274393 0.0663784985858 0.0268097608126 0.00683688809338 0.00767209315154 0.245071268308 0.0557700665149 0 
0.452773147138 0.142968103121 0.848201621936 0.229870181136 0.0651644208738 0.0201038716518 0.00701657338827 0.0152093646962 0.235937833413 0.0558923118427 0 
0.457708272782 0.147421531273 0.840552177187 0.236978149353 0.0672424676579 0.0236279524593 0.0082352623304 0.00933063269325 0.242234189369 0.033656355548 0 
0.452671438552 0.139496236048 0.848359270245 0.228651738332 0.0615767792794 0.0200752246019 0.00841956895999 0.0100775439369 0.237237950406 0.0305503359102 0 
0.450817065388 0.142338739448 0.851233548648 0.222967370649 0.0587746415557 0.0200626084742 0.00927665926332 0.015164269137 0.239167630065 0.0329548112177 0 
