# 5 : 4 4 4 4 4 
# Tr_f(plaq)/2    Tr_a(plaq)/3     energy       W(1,2)        W(2,2)        W(2,3)        W(3,3)        W(2,4)        W(4,4)        Re(polyakov)   Im(polyakov) 
0.853849835113 0.659936960704 0.175380197864 0.783313977105 0.714438371659 0.657586034854 0.604500947791 0.705646409935 0.895690845443 0.82795670434 0 
0.764586737463 0.491192470412 0.282495915044 0.645897162474 0.539052201218 0.456371021661 0.399494132202 0.494941106927 0.741087272307 0.737823233304 0 
0.697532477053 0.386190362089 0.362961027537 0.556721097316 0.434220945507 0.354224690229 0.295170096958 0.408813943911 0.638387314883 0.651695133489 0 
0.650517147216 0.320837905086 0.419379423341 0.493115725541 0.366703929213 0.295514070658 0.242275194462 0.342247647109 0.578954948438 0.598218613447 0 
0.616581888089 0.282324624974 0.460101734293 0.450446214335 0.318663963052 0.239234777319 0.185878666473 0.282414071241 0.509800886839 0.540676402776 0 
0.593253336906 0.253570706852 0.488095995713 0.414468637344 0.277828203853 0.210384958569 0.160045317695 0.245753111409 0.454233360812 0.495646956579 0 
0.574410982639 0.232218036028 0.510706820833 0.386936884676 0.242658309303 0.178680842056 0.131360022167 0.204004764309 0.418116709524 0.49634179233 0 
0.552060857601 0.213589604363 0.537526970878 0.35889746949 0.221992030141 0.154724818587 0.110489303123 0.183318258555 0.386793750866 0.493873479845 0 
0.529252613382 0.190777934643 0.564896863942 0.331509146913 0.196878152737 0.128965541309 0.0943744345492 0.154245871981 0.357531979205 0.442252894998 0 
0.510883599276 0.175512312773 0.586939680869 0.318166281254 0.181151596528 0.11164739284 0.0805317986946 0.149437293804 0.347320175927 0.381312810003 0 
0.497751400078 0.162185541215 0.602698319907 0.303517394727 0.15557384703 0.0968060641867 0.0689105278727 0.125609150067 0.343013114789 0.354133519509 0 
0.482332902774 0.156394726686 0.621200516671 0.282380889702 0.141443584432 0.0954484017774 0.0579637975991 0.111844865323 0.331061176086 0.31274991928 0 
0.474871312521 0.151353167103 0.630154424975 0.268688950829 0.131968320021 0.0824748006776 0.0521412210878 0.100720697312 0.312705223659 0.274792179301 0 
0.467875421349 0.153908468967 0.638549494381 0.261807586682 0.125596894557 0.0688703804054 0.0434405379226 0.0851760481089 0.307143708822 0.296441185471 0 
0.457145104086 0.146910004825 0.651425875097 0.249344750149 0.118521720297 0.0631620459226 0.042140481059 0.0758817924542 0.284614024714 0.281776944265 0 
0.445508858165 0.136477891411 0.665389370202 0.237481025697 0.106771327797 0.054768819525 0.0301038546747 0.062991780008 0.277994141072 0.261915155462 0 
0.438852825343 0.126688295317 0.673376609588 0.231242618401 0.101500173071 0.0518626790564 0.0242306556287 0.054686270466 0.281711015793 0.218941825672 0 
0.42994019408 0.123719621045 0.684071767104 0.221847616571 0.0870717577971 0.0497985419376 0.0252815499115 0.0567171549342 0.272346956141 0.22116365569 0 
0.4224002544 0.116566962763 0.69311969472 0.210665911379 0.0840661751965 0.0421651850301 0.0258857035298 0.0461711787928 0.275441671682 0.206506315128 0 
0.419391155693 0.121671064209 0.696730613168 0.21027063072 0.0725973617805 0.0416365622861 0.0241548973676 0.044555869332 0.268236150501 0.173563633646 0 
0.411936798894 0.114455195017 0.705675841327 0.19788234974 0.0640571991599 0.0311026347887 0.0208246974766 0.0377032660317 0.263968452182 0.217463934769 0 
0.401521508873 0.10549349682 0.718174189353 0.186617547665 0.063074857358 0.0289595666272 0.0242846038793 0.0335330475586 0.283582067351 0.221746543849 0 
0.39587120991 0.108802520511 0.724954548109 0.183057805639 0.0656505847865 0.0316844214456 0.0215560089846 0.0336513963892 0.30303495039 0.211653446152 0 
0.38922211529 0.103295617373 0.732933461652 0.173156053331 0.0616887927618 0.0238444284335 0.00792590338925 0.0177903417979 0.280648835183 0.202320017116 0 
0.385964544259 0.10037911373 0.736842546889 0.168509913562 0.0498056995115 0.0236800820438 0.0109964033201 0.0208845539327 0.28751583833 0.16181677609 0 
0.376915635948 0.100570220574 0.747701236863 0.164982599115 0.0425383989167 0.0206167606804 0.0118117788041 0.0220500537802 0.273515485855 0.154624146207 0 
0.373397687431 0.0960390376574 0.751922775083 0.152604132139 0.0416388257591 0.0174937111549 0.00276766866831 0.01852006565 0.268970536497 0.153667931268 0 
0.372139588599 0.0964044539988 0.753432493682 0.158059302143 0.0363696412838 0.0128772014891 0.00423831538005 0.0161587636301 0.277518733546 0.163044096073 0 
0.36779861475 0.0905720862662 0.7586416623 0.151598785498 0.0312621530643 0.00979854380405 0.000218988658713 0.0227482133034 0.263918094806 0.169975158688 0 
0.361064204537 0.0853678900238 0.766722954556 0.150035130924 0.0347672195295 0.0077205217576 0.00411956987688 0.0122342706104 0.255690250572 0.132852145766 0 
0.352976566374 0.0852684971645 0.776428120351 0.147282531469 0.0256186423782 0.00684042226846 0.00678252759543 0.0122485780886 0.25595914215 0.119210226815 0 
0.346537319442 0.0869153287648 0.78415521667 0.139625600577 0.0265512502094 0.00361158240437 0.00836212575578 0.005956367614 0.25799566934 0.0996754876296 0 
0.34239164979 0.08400522671 0.789130020252 0.130660567595 0.0217760550234 0.00183841905883 0.00490414013445 0.00463423500337 0.25977997052 0.0793524833998 0 
0.343286093454 0.0823708615707 0.788056687856 0.126191734592 0.0229110962969 0.00722840355624 0.00975329512679 0.01642885434 0.249271551212 0.0766405515773 0 
0.343702024904 0.0816172823399 0.787557570115 0.129103315105 0.0241566266641 0.0109072079472 0.0141655515072 0.0157314241387 0.25682756865 0.05086858561 0 
0.336049315195 0.0739069446735 0.796740821766 0.128857904273 0.0165663225117 0.00498348226509 0.0115354364987 0.0156871397222 0.259878986619 0.061272244081 0 
0.330514433268 0.0720975987847 0.803382680078 0.120486904838 0.0217892352798 -0.00267668571862 0.00368731007731 0.00606209440836 0.271625697343 0.0776530196978 0 
0.33311597537 0.0723409448987 0.800260829556 0.11740047568 0.0238108155952 0.00620129650888 0.00216948654272 0.00731485310584 0.264144099657 0.0941517230419 0 
0.329104720125 0.0769551440113 0.80507433585 0.11250023651 0.014750482585 0.00994264043254 -0.00224677356588 0.00179350400265 0.262992226154 0.105003193775 0 
0.322937862149 0.0767518847663 0.812474565421 0.109526637243 0.0145799609289 0.00431813848407 -0.00120171212997 -0.00643322905344 0.267846389696 0.0930955219513 0 
0.322717628705 0.0711135423117 0.812738845553 0.111543514869 0.0111255847901 -0.00156834140068 0.00216337352246 -0.00784084366133 0.265918876961 0.0321131277564 0 
0.317356047883 0.0643781038669 0.819172742541 0.104737769989 0.00818418118522 0.00456594385073 0.00682400065065 -0.0190068101364 0.268708563853 0.039259407763 0 
0.314369560559 0.0658350660981 0.822756527329 0.10344078687 0.00338124067771 -0.00174863040563 0.00151200359486 -0.0101182916241 0.237940984527 0.0116395305292 0 
0.310354501855 0.0635892594636 0.827574597774 0.102330816802 0.00872031941072 0.00531664722221 -0.00498531549485 -0.00222419455508 0.231269354734 0.000345795664693 0 
0.308319676887 0.0607158967935 0.830016387735 0.0994228621529 0.00596122619088 0.00570387304662 0.00236569438958 0.000507464516178 0.237294365558 -0.0116097010546 0 
0.307328423508 0.0629370958227 0.83120589179 0.0995076842071 0.0160171970623 0.00189645785553 -0.00100941494036 -0.00198102989428 0.226235391763 -0.0499430436594 0 
0.310224393664 0.0652583210693 0.827730727603 0.10315526729 0.0221480441797 0.0081253632685 0.00888467280428 -0.00464931536275 0.255224347899 0.0150119367536 0 
0.306780433273 0.0655709202947 0.831863480073 0.0990031193231 0.0268854659728 0.00768482619547 -0.000690376687733 -0.000720003386383 0.261005214448 -0.00372404346158 0 
0.304835486257 0.0659064626184 0.834197416492 0.0999265579657 0.0279378203254 0.00947293080424 -0.00372579891263 0.00803504522694 0.230835597016 0.0194663809872 0 
0.304606904369 0.0669168691983 0.834471714757 0.0963796037673 0.0198280863837 -0.00136620128367 -0.00271900231675 -0.0126367232898 0.233759052501 0.019525569896 0 
0.305513233814 0.0679203288392 0.833384119424 0.0948784039438 0.0132031927773 -0.00484341606797 0.00521241986892 -0.00323864625235 0.224843846106 0.010661203121 0 
0.303662480922 0.0631029223446 0.835605022893 0.0945592676244 0.0154874312242 -0.000308882809023 0.00907219000119 -0.00673399938878 0.235497711166 -0.00446341182143 0 
0.300519510155 0.0611372195743 0.839376587814 0.0895652206939 0.0150587025453 0.00425055314732 0.0043007175098 -0.00329212870559 0.241071390877 -0.0451577960402 0 
0.300515937325 0.0648774743663 0.83938087521 0.0886944291864 0.00763197722146 -0.00384121723893 -0.00117945339346 -0.000543165062006 0.228889042259 -0.0118194787885 0 
0.300760603811 0.0626280035847 0.839087275426 0.0929244358374 0.014534515754 -0.00630520076468 0.00360811073853 -0.000267925852119 0.233836644599 0.0204848156366 0 
0.300771037221 0.0585294638017 0.839074755335 0.0944454078392 0.00543937910424 -0.00767799974847 0.00390226590037 -0.00738954430108 0.238867497074 0.0245175925216 0 
0.297972744332 0.0659037155202 0.842432706802 0.090844654049 0.007903273358 -0.0123091538222 -0.00207907047629 0.00255082347755 0.241278689848 0.00758188823317 0 
0.298400405722 0.0657955560148 0.841919513133 0.0827382358432 0.0121442310882 -0.00530635422952 -0.00282485542657 -5.04030765807e-05 0.240904451422 0.0043938146368 0 
0.293324551407 0.0621093034504 0.848010538312 0.0867877723864 0.00737991426168 0.00137619137513 0.00320410442338 -0.000167933524672 0.251946073625 0.0179323618608 0 
0.29360568787 0.0566466400456 0.847673174556 0.0859724582091 0.0105691486435 0.000818026661055 0.00548335368746 0.00108722266559 0.267508932887 -0.000752210219916 0 
0.294825216103 0.055774192452 0.846209740676 0.0870872718256 0.00860936729446 -0.00178950096517 -0.00186109292032 0.00479953070333 0.2679025487 0.00936534671306 0 
0.296084495833 0.062088654999 0.844698605 0.085544350012 0.00525861700999 0.000744677080355 -0.00413207900208 0.0060466908468 0.247270756904 0.0642713567809 0 
0.297377439293 0.0655958650095 0.843147072848 0.0885533210685 0.0088906016273 0.00670324751753 -0.0103044987689 0.00936312072395 0.255272432201 0.0792999210807 0 
0.293787255068 0.0575068352506 0.847455293918 0.0766846590212 0.00860031148289 0.00429409699993 -0.0171900750405 0.014205616723 0.267648175288 0.0568726120761 0 
0.293177265681 0.0585847581365 0.848187281183 0.0689408992327 0.00362129185897 0.00388894815251 -0.00772762175036 0.00786396149485 0.251643693381 0.0274354412718 0 
0.291969484486 0.0562711683318 0.849636618617 0.0782200798343 0.00706961820898 -0.000674872848011 0.00213858862592 0.0106519317702 0.24602271768 0.0167073368871 0 
0.296222209405 0.0615955063277 0.844533348714 0.076717263847 0.00825732468572 -0.00180073348485 -0.00350654349388 0.00190308286436 0.231703221036 0.0362792170662 0 
0.293138527633 0.0612768430397 0.848233766841 0.0825532874081 0.0035853082303 -0.00324642228889 -0.0040456053193 0.00245492288008 0.247142886914 0.0438143591452 0 
0.294865553413 0.0597175832958 0.846161335905 0.0823538786219 0.00597590202264 0.00245791550732 -0.00192871409419 0.0113025459874 0.251033797777 0.0507124404307 0 
0.294009080406 0.0609621083118 0.847189103513 0.0784066635524 0.002279995399 -0.00324044919067 0.00821898091231 0.00721416261765 0.245795598735 0.0613715864913 0 
0.289036178806 0.0594886289408 0.853156585432 0.0827644940891 0.0018321230623 -0.0045327750259 0.00242279260125 2.04593943856e-05 0.227949843949 0.0491428831981 0 
0.289517081059 0.0584336360731 0.852579502729 0.085300376334 0.000927419213983 -0.00291304228396 -0.000146625759681 -0.0136764650186 0.249211945082 0.0636252858103 0 
0.287513063265 0.0579589677967 0.854984324081 0.0826537320887 -0.000396808442186 0.00130746809754 0.00137897100553 -0.00374304175377 0.23971007201 0.0455535498265 0 
0.292107276084 0.058305047722 0.8494712687 0.0831637740414 0.000302922218642 0.00261196491945 0.00290841054855 -0.00185861003093 0.246417424299 0.0861864329957 0 
0.290290077365 0.0559847592474 0.851651907162 0.0879737357389 0.00658917875901 0.00296071195651 0.00292002442248 0.0104377737869 0.268217665815 0.0666906402085 0 
0.290400690373 0.0548358171161 0.851519171553 0.089716422413 0.00741753469535 0.00397453466793 -0.00238608543345 -0.00770794453763 0.231513866802 0.0331870039279 0 
0.296564619273 0.058063548029 0.844122456872 0.0900268652392 -0.000448556986106 0.00648444378787 -0.0118456462985 0.00649949948863 0.228168741458 0.0293907396178 0 
0.291968880522 0.0636751120724 0.849637343373 0.0905545259654 -0.00282747397727 2.05981756589e-05 -0.00283336338962 0.00794341933386 0.22638525691 0.0568206417007 0 
0.290815973165 0.0589718789061 0.851020832202 0.0864930413709 -0.00557645490837 -0.00778983243052 -0.00368440668533 0.00347306255637 0.224434938318 0.0927275605473 0 
0.293181256743 0.0567691357141 0.848182491908 0.0827318113411 0.00670228085489 -0.000247787379658 -6.45003669177e-05 -0.00783725953855 0.249688725688 0.0640013936131 0 
0.299972432457 0.0598492502882 0.840033081052 0.0904484289494 0.00475468847546 0.000923658647135 -0.000704837548388 -0.00915883017995 0.244150628429 0.0799317970702 0 
0.296235863607 0.0564194678981 0.844516963672 0.0854280182463 0.0126255107339 -0.00100398383749 -0.00214086652504 -0.0118107959779 0.26019320093 0.026286661227 0 
0.297416982066 0.0588732408537 0.84309962152 0.0867731416308 0.0164044194137 -0.00313195169077 -0.000897378649679 -0.0148842439092 0.237791571205 0.0186779495184 0 
0.300170755705 0.06454052548 0.839795093154 0.0851273780716 0.0121238395403 -0.00718213707052 -0.00293669868107 -0.0148757576393 0.243240742294 0.00700639028677 0 
0.295339836181 0.0567912028617 0.845592196583 0.0817552534439 0.0114573939551 -0.00987022377109 -0.00503532711974 -0.00322291233266 0.242315819513 0.0103615485185 0 
0.301685419768 0.059974788471 0.837977496278 0.0925585630467 0.00480095592739 -0.00967087426008 0.00352139757651 -0.00822094256608 0.229881934582 -0.0352832700809 0 
0.297025157937 0.0535262976846 0.843569810476 0.0941101808192 0.0121473224565 -0.00867241840719 0.0020932300876 -0.00752598464021 0.233605426899 -0.0443762084441 0 
0.297012889974 0.0600664514007 0.843584532032 0.0863376354328 0.00261950086837 -0.00526151645469 0.00493274235891 -0.00870063328797 0.241762895138 -0.024739834669 0 
0.298217533044 0.0620142857285 0.842138960347 0.0811758075825 0.00600621519107 -0.00232868434005 0.00150543103282 0.0017505170431 0.282030563786 -0.010208102378 0 
0.296363321216 0.0640547485468 0.844364014541 0.0812935987533 -0.000931271299682 -0.00642049573023 -0.000675141485751 0.00955948565784 0.248750069089 -0.00380023076852 0 
0.292816061714 0.0613505967203 0.848620725944 0.0750739184008 0.0106633238545 -0.00101196654782 0.00119034666436 -0.00131233827941 0.228992500228 -0.0683757210898 0 
0.292872809259 0.0618507036745 0.848552628889 0.0800602065 0.00495909584901 0.012489372055 0.00861033169585 0.000378695620525 0.247624464197 -0.029672297201 0 
0.285289735967 0.0541014520961 0.857652316839 0.0728755307219 0.000246516058181 0.00635203489905 0.00231744298558 0.00282828225484 0.229496796406 -0.0527766666873 0 
0.291524919717 0.0587495667392 0.85017009634 0.0783071215273 -0.00135266065855 0.00417217302935 0.00494060219993 0.00566806850907 0.226719616561 -0.0290509932482 0 
0.290682102591 0.0589064004934 0.851181476891 0.0756471251539 0.00382652684562 0.0086370065106 0.0117297981876 0.0043306714859 0.251109638518 -0.0349739092972 0 
0.296817364806 0.0596333349743 0.843819162233 0.0818709297019 0.0124534955437 0.000368430240756 0.00668054036679 0.0161904634945 0.241141793497 -0.0410323011593 0 
0.300292264657 0.0579879769956 0.839649282412 0.0841664213187 0.0164969990329 0.00763858210717 -0.00190485424208 0.0145987058938 0.251343470587 -1.97486813817e-05 0 
0.296815895589 0.0589990692292 0.843820925293 0.0823144594119 0.0102362157446 -0.00735881449005 -0.00231773772272 0.01005178375 0.262762637349 0.0071332370227 0 
0.294452871945 0.0524909782865 0.846656553667 0.08165721054 0.00788583330651 -0.00464685962936 0.00508513433514 -0.00167891904248 0.273506286191 0.0102088359002 0 
0.28916099528 0.0559474808878 0.853006805664 0.0768923313145 0.00323067410386 -0.00346542493982 0.0127850180243 -0.00512069079371 0.256324847238 -0.00796284690187 0 
0.289728365133 0.0539353374498 0.85232596184 0.0799865367476 0.00143447130671 -0.00804633199921 0.00387577716328 0.00402662234018 0.27406883588 0.00267548160827 0 
0.286445491508 0.0518435854003 0.85626541019 0.0806684081702 0.00875507640794 0.00290013297271 0.0064060548143 -0.00277280754153 0.24812082415 -0.0126917188328 0 
0.281327507037 0.051271252484 0.862406991555 0.0843820839318 0.00222481941586 -0.00514381785434 0.00142106428076 -0.00367931052482 0.23153156648 -0.00538365691136 0 
0.287145027702 0.0617626538979 0.855425966758 0.0874412445374 0.00490634381643 -0.00124827632933 0.00563970558763 -0.00881541490129 0.216683861399 0.0195916235684 0 
0.287394109047 0.0612987889439 0.855127069143 0.0851965745942 0.00154494020968 0.00304726949044 0.00912993232474 -0.00385205994586 0.24694273604 0.0251692950241 0 
0.287271278913 0.0641210577869 0.855274465304 0.0880148098949 -0.00142093991833 -0.000359290895638 0.00611065703653 -0.00937540653898 0.244993251317 0.0218186900578 0 
0.289756482775 0.0626386407841 0.85229222067 0.0834282434461 0.0089243057206 -0.00166274414287 -0.00902576950754 -0.0157472882268 0.250323150705 0.00703198716217 0 
0.287822078365 0.0641138468975 0.854613505962 0.0871844211277 0.0124608436845 0.00518861505229 0.00469588584158 -0.0127536260958 0.252214828369 0.0137230448909 0 
0.29228041578 0.0629226624583 0.849263501064 0.085022516604 0.0100379505569 0.00738394657339 -0.00379153964424 -0.0177951568791 0.23657651489 0.0239029232042 0 
0.287748456273 0.059452399903 0.854701852472 0.0857309325719 0.00943920735863 0.00460617330795 0.00133724023653 -0.0133485741763 0.254804482522 -0.00185558441781 0 
0.289422939856 0.0609052590135 0.852692472172 0.084643993075 0.00461166561844 -0.000883619892409 0.00481266048525 0.0177380103485 0.234212276963 -0.00444687572378 0 
0.286901006408 0.0592600763726 0.85571879231 0.0813268083956 0.00646948698914 0.00236676449555 -0.00106724088191 0.0157441726269 0.241042909874 0.0323548886366 0 
0.28453806096 0.0555252284492 0.858554326848 0.08056264037 0.00556741166628 0.00103816744675 0.000105525796313 0.00902722495096 0.242968528202 0.054459575405 0 
0.287945145218 0.055069388357 0.854465825739 0.0833865414944 0.0103107772823 0.00286084049134 0.000850891303849 0.00456565833441 0.225702697585 0.0511240250479 0 
0.291136336694 0.0586656782061 0.850636395967 0.0863185850867 0.0104076670496 8.07105147943e-05 0.000599193102037 0.000238093949817 0.229678292001 0.0430526442275 0 
0.291133472127 0.0583196006373 0.850639833447 0.08810569915 0.00673292526952 -0.000444514639712 -0.00481938094966 -0.00673155256984 0.250495235338 0.0539496029721 0 
0.293479325157 0.0602919530367 0.847824809811 0.0859207747536 0.00805640616256 0.000376704845453 -0.00347495113123 -0.00895673546636 0.269544622816 0.0583048092604 0 
0.29807931742 0.0580929056792 0.842304819096 0.0916670939924 0.00824016620273 0.00161850961464 -0.00851673068969 0.000722387963097 0.255717228169 0.0488968728573 0 
0.2977560008 0.0577933107246 0.84269279904 0.0888068563377 0.0118367259798 -0.000430583634051 -0.00277859799801 0.00435253574433 0.252538850774 0.0329303320617 0 
0.305690757102 0.0587395781407 0.833171091477 0.0894541159788 0.0153618559009 0.00345887410797 0.00175206768416 0.0091869057859 0.253197093163 0.0280626626022 0 
0.301845212078 0.0587255009811 0.837785745506 0.0863203930581 0.0153536403104 0.000377921120255 -0.00867075881983 0.00453835530155 0.241842989324 0.0227673864936 0 
0.294027758181 0.0614998647642 0.847166690182 0.0868793666237 0.007656781103 -0.00550550584457 -0.00307606834569 -0.00845468801112 0.255564659982 0.0111588393858 0 
